# dimensionless total lensed [l(l+1)/2pi] C_l's
# for l=2 to 2500, i.e. number of multipoles equal to 2499
#
# -> if you prefer output in CAMB/HealPix/LensPix units/order, set 'format' to 'camb' in input file
# -> if you don't want to see such a header, set 'headers' to 'no' in input file
# -> for CMB lensing (phi), these are C_l^phi-phi for the lensing potential.
#    Remember the conversion factors:
#    C_l^dd (deflection) = l(l+1) C_l^phi-phi
#    C_l^gg (shear/convergence) = 1/4 (l(l+1))^2 C_l^phi-phi
#
# 1:l     2:TT                     3:EE                     4:TE                     5:BB                     6:phiphi                 7:TPhi                   8:Ephi               
    2       1.312957103397e-10       4.384396380225e-15       4.386158154084e-13       4.204756350381e-19       1.024123014044e-08       3.530046511903e-10      -1.989361174516e-12 
    3       1.254545262449e-10       7.736088595561e-15       5.348276376677e-13       8.412142645918e-19       6.408387841269e-09       2.589326854489e-10      -1.771924160713e-12 
    4       1.198770460249e-10       9.572584225784e-15       5.501766366365e-13       1.402599505531e-18       4.516954525866e-09       1.999957778599e-10      -1.453959394617e-12 
    5       1.155835587149e-10       9.482072265594e-15       5.185886783375e-13       2.104958123762e-18       3.403556716503e-09       1.602298208633e-10      -1.125489924549e-12 
    6       1.125304735973e-10       7.920851656977e-15       4.628547822864e-13       2.948678777670e-18       2.679557124358e-09       1.319058871336e-10      -8.176193642977e-13 
    7       1.104938041490e-10       5.736933898157e-15       3.986696007072e-13       3.934199944608e-18       2.177155757246e-09       1.108568599566e-10      -5.478064174011e-13 
    8       1.092202705580e-10       3.693618916284e-15       3.355856543512e-13       5.061996499768e-18       1.810873060733e-09       9.463137643206e-11      -3.250282497645e-13 
    9       1.085707078007e-10       2.223216190292e-15       2.791645140748e-13       6.332565457521e-18       1.534228878903e-09       8.177618504703e-11      -1.526798548016e-13 
   10       1.084311864502e-10       1.401832978096e-15       2.323883065211e-13       7.746411414629e-18       1.319751764583e-09       7.144689724687e-11      -2.980988926345e-14 
   11       1.086570501716e-10       1.068723724806e-15       1.966281905605e-13       9.304032242484e-18       1.095125531656e-09       6.217511891814e-11       4.723312055410e-14 
   12       1.091741110963e-10       9.873654214588e-16       1.720872426604e-13       1.100590556160e-17       9.605868410587e-10       5.514012081073e-11       8.697085776512e-14 
   13       1.099495254155e-10       9.687741058791e-16       1.579484497422e-13       1.285247649641e-17       8.498621601147e-10       4.933108551281e-11       9.721279429017e-14 
   14       1.108873933038e-10       9.229327461990e-16       1.526939200304e-13       1.484414715373e-17       7.575105867854e-10       4.428202285753e-11       8.609599841069e-14 
   15       1.119250248451e-10       8.464566873699e-16       1.545096832390e-13       1.698126819555e-17       6.795836396015e-10       3.998350402948e-11       6.208089857881e-14 
   16       1.131332438032e-10       7.781178487853e-16       1.613889588652e-13       1.926413279034e-17       6.131640053737e-10       3.636562507524e-11       3.243876250402e-14 
   17       1.144111645869e-10       7.551967207368e-16       1.713761470145e-13       2.169297312869e-17       5.560480114794e-10       3.326417211685e-11       2.914688525073e-15 
   18       1.157476792929e-10       7.904924207996e-16       1.828051740165e-13       2.426795834434e-17       5.063486562913e-10       3.052950012740e-11      -2.225704519387e-14 
   19       1.171706651931e-10       8.715167155013e-16       1.946451586975e-13       2.698920249250e-17       4.633331914718e-10       2.812409614504e-11      -4.085156801127e-14 
   20       1.186498224740e-10       9.743989237572e-16       2.058919243338e-13       2.985675523984e-17       4.253555557392e-10       2.598151415944e-11      -5.162774565122e-14 
   21       1.201764966468e-10       1.085619020688e-15       2.161552493854e-13       3.287062665228e-17       3.918413686092e-10       2.407840865292e-11      -5.488866835054e-14 
   22       1.217203516177e-10       1.196400375314e-15       2.252898298004e-13       3.603077624312e-17       3.620151769023e-10       2.237258673155e-11      -5.201326601340e-14 
   23       1.232908468312e-10       1.315284675214e-15       2.334187164181e-13       3.933714313531e-17       3.354833849452e-10       2.083140404644e-11      -4.465500886328e-14 
   24       1.248889511181e-10       1.457514251232e-15       2.408057113386e-13       4.278963503507e-17       3.116469681458e-10       1.941230718023e-11      -3.491311496502e-14 
   25       1.265142467351e-10       1.632946202625e-15       2.477100310047e-13       4.638816417960e-17       2.902363127359e-10       1.812803697844e-11      -2.443225767531e-14 
   26       1.281525591384e-10       1.848459267928e-15       2.544178868117e-13       5.013263382526e-17       2.708744230243e-10       1.699209982656e-11      -1.486072141792e-14 
   27       1.298094745508e-10       2.101718599322e-15       2.611544704404e-13       5.402297016592e-17       2.533383179879e-10       1.597839773465e-11      -7.387498858399e-15 
   28       1.314864949353e-10       2.387102810267e-15       2.680937012276e-13       5.805911368271e-17       2.373351151096e-10       1.504254839207e-11      -2.939960961379e-15 
   29       1.331887953599e-10       2.703019906830e-15       2.751781860881e-13       6.224105793637e-17       2.227889120091e-10       1.417658102066e-11      -1.488038675951e-15 
   30       1.349095857285e-10       3.048545965853e-15       2.822343337904e-13       6.656882641544e-17       2.095488920916e-10       1.337619919175e-11      -2.537485755774e-15 
   31       1.366321032046e-10       3.422564404668e-15       2.890291867505e-13       7.104247270778e-17       1.973514389366e-10       1.263180646557e-11      -5.394363754390e-15 
   32       1.383621130086e-10       3.825721902537e-15       2.953097399384e-13       7.566211059261e-17       1.861378660525e-10       1.194605928964e-11      -9.402283311965e-15 
   33       1.401050545789e-10       4.259182988049e-15       3.007686897751e-13       8.042790303918e-17       1.758329998624e-10       1.132173389302e-11      -1.376310283138e-14 
   34       1.418597994252e-10       4.723792823065e-15       3.050724355566e-13       8.534005581938e-17       1.662973608356e-10       1.075682789707e-11      -1.760626194026e-14 
   35       1.436305360792e-10       5.218923308913e-15       3.080124276010e-13       9.039880550945e-17       1.574850592084e-10       1.024524767826e-11      -2.049996507157e-14 
   36       1.454173573284e-10       5.743182463988e-15       3.094031646984e-13       9.560443491452e-17       1.493281400419e-10       9.775450837042e-12      -2.210955250198e-14 
   37       1.472156051271e-10       6.295469197508e-15       3.090812445748e-13       1.009572582267e-16       1.417236029525e-10       9.333541179008e-12      -2.217094992435e-14 
   38       1.490274573538e-10       6.877660920777e-15       3.070424369290e-13       1.064575442287e-16       1.346537953940e-10       8.916324179455e-12      -2.086771635820e-14 
   39       1.508529627028e-10       7.492832912524e-15       3.033518971792e-13       1.121055730118e-16       1.280981370881e-10       8.522029344171e-12      -1.858583310642e-14 
   40       1.526861577933e-10       8.144582625196e-15       2.981104796549e-13       1.179016596778e-16       1.219964456355e-10       8.146555265581e-12      -1.582236951611e-14 
   41       1.545188638946e-10       8.836332111828e-15       2.914350728424e-13       1.238461172940e-16       1.162703722872e-10       7.785303651043e-12      -1.310085635904e-14 
   42       1.563550305443e-10       9.568880319659e-15       2.833862491684e-13       1.299391253839e-16       1.109044455595e-10       7.439886264872e-12      -1.066624721365e-14 
   43       1.582000341384e-10       1.034211131242e-14       2.740210235550e-13       1.361808227377e-16       1.058855679455e-10       7.113260476098e-12      -8.703278018339e-15 
   44       1.600563723054e-10       1.115564118736e-14       2.634136627723e-13       1.425713429387e-16       1.011786596563e-10       6.807819809299e-12      -7.421165704284e-15 
   45       1.619247964116e-10       1.200901486006e-14       2.516239020883e-13       1.491107769041e-16       9.673950623141e-11       6.525051988953e-12      -6.988532962384e-15 
   46       1.638088378726e-10       1.290240501537e-14       2.385883132065e-13       1.557990478434e-16       9.256202546869e-11       6.264538880635e-12      -7.312310925117e-15 
   47       1.657111116541e-10       1.383609436642e-14       2.241978679953e-13       1.626359984206e-16       8.864214021107e-11       6.024550942181e-12      -8.194665825510e-15 
   48       1.676317746587e-10       1.481027676239e-14       2.083267073839e-13       1.696214223052e-16       8.496350556628e-11       5.802223814453e-12      -9.390859951592e-15 
   49       1.695683009877e-10       1.582505314816e-14       1.908310911920e-13       1.767550617395e-16       8.149659161293e-11       5.593479552951e-12      -1.060657244810e-14 
   50       1.715172090445e-10       1.688046972380e-14       1.715739044542e-13       1.840365997392e-16       7.820775366182e-11       5.394112923475e-12      -1.155780591938e-14 
   51       1.734803169118e-10       1.797665400781e-14       1.505084548127e-13       1.914656398424e-16       7.509147364545e-11       5.203580646323e-12      -1.217599209112e-14 
   52       1.754597964518e-10       1.911370872277e-14       1.276156056963e-13       1.990417166584e-16       7.214528469048e-11       5.022104543623e-12      -1.245392860344e-14 
   53       1.774562401315e-10       2.029167081765e-14       1.028803567013e-13       2.067642981324e-16       6.936011177553e-11       4.849572997257e-12      -1.238831882899e-14 
   54       1.794685281352e-10       2.151050941342e-14       7.629199608001e-14       2.146327828606e-16       6.671982443986e-11       4.685517007026e-12      -1.198003788882e-14 
   55       1.814949916474e-10       2.277012415460e-14       4.785012831384e-14       2.226465509951e-16       6.420627387949e-11       4.529301903663e-12      -1.124733027526e-14 
   56       1.835375455398e-10       2.407034449125e-14       1.758416097113e-14       2.308051379231e-16       6.181689427622e-11       4.380813107516e-12      -1.026863261086e-14 
   57       1.855983495702e-10       2.541092662007e-14      -1.446107410113e-14       2.391080990297e-16       5.955069055073e-11       4.239898791034e-12      -9.150854929832e-15 
   58       1.876785215678e-10       2.679155106841e-14      -4.823039863990e-14       2.475549593032e-16       5.740290854205e-11       4.106153948104e-12      -8.018134204762e-15 
   59       1.897780550461e-10       2.821182065566e-14      -8.365790657815e-14       2.561452127371e-16       5.536480139365e-11       3.978904854343e-12      -7.012604191370e-15 
   60       1.918957368161e-10       2.967125845455e-14      -1.206665826569e-13       2.648783217333e-16       5.342339593959e-11       3.857193527405e-12      -6.295165273220e-15 
   61       1.940301783384e-10       3.116933716948e-14      -1.591878710619e-13       2.737537987486e-16       5.156516547573e-11       3.740044469631e-12      -6.003473201040e-15 
   62       1.961833666823e-10       3.270557958905e-14      -1.992263769042e-13       2.827714740027e-16       4.978853992655e-11       3.627370016679e-12      -6.113144347704e-15 
   63       1.983577680475e-10       3.427947716613e-14      -2.408090769949e-13       2.919312870734e-16       4.809380194693e-11       3.519241553468e-12      -6.546620804981e-15 
   64       2.005552382415e-10       3.589045956948e-14      -2.839668979807e-13       3.012332119277e-16       4.647932082894e-11       3.415618711216e-12      -7.212626473760e-15 
   65       2.027769756303e-10       3.753789364193e-14      -3.287349679545e-13       3.106772589334e-16       4.494144283464e-11       3.316342784352e-12      -8.005579496638e-15 
   66       2.050234740897e-10       3.922108235857e-14      -3.751528680668e-13       3.202634768713e-16       4.347438152881e-11       3.221130147417e-12      -8.805004690528e-15 
   67       2.072944759561e-10       4.093926378491e-14      -4.232648841371e-13       3.299919549480e-16       4.207010811177e-11       3.129565671969e-12      -9.474945979250e-15 
   68       2.095895415226e-10       4.269160808409e-14      -4.731072274437e-13       3.398628227387e-16       4.072053742306e-11       3.041231185857e-12      -9.896143788549e-15 
   69       2.119099966933e-10       4.447721016287e-14      -5.246661277959e-13       3.498762455084e-16       3.942484544472e-11       2.956135791885e-12      -1.007145176885e-14 
   70       2.142572972675e-10       4.629509365710e-14      -5.779116620055e-13       3.600324315532e-16       3.818344431847e-11       2.874361317506e-12      -1.004082288610e-14 
   71       2.166324165932e-10       4.814421167879e-14      -6.328099531947e-13       3.703316361089e-16       3.699576782414e-11       2.795931914112e-12      -9.850680322307e-15 
   72       2.190358142869e-10       5.002344572441e-14      -6.893230891378e-13       3.807741633108e-16       3.586022042533e-11       2.720810927710e-12      -9.554167886744e-15 
   73       2.214674049526e-10       5.193160458317e-14      -7.474090406040e-13       3.913603681527e-16       3.477412631496e-11       2.648897769596e-12      -9.211400427110e-15 
   74       2.239265269019e-10       5.386742324531e-14      -8.070215796991e-13       4.020906584461e-16       3.373367846086e-11       2.580024787030e-12      -8.889714240711e-15 
   75       2.264119108728e-10       5.582956181042e-14      -8.681101982078e-13       4.129654967793e-16       3.273388765137e-11       2.513954133912e-12      -8.663917485636e-15 
   76       2.289222991100e-10       5.781661564338e-14      -9.306237567656e-13       4.239853087947e-16       3.176984486777e-11       2.450436097752e-12      -8.598169092925e-15 
   77       2.314585020828e-10       5.982715039373e-14      -9.945223811285e-13       4.351501843768e-16       3.084088680015e-11       2.389403277422e-12      -8.687246996723e-15 
   78       2.340216617315e-10       6.185967140852e-14      -1.059767596969e-12       4.464601252806e-16       2.994710088871e-11       2.330806293812e-12      -8.904975070365e-15 
   79       2.366126167258e-10       6.391261220399e-14      -1.126318786424e-12       4.579151340176e-16       2.908805574922e-11       2.274553635951e-12      -9.221520229216e-15 
   80       2.392318845199e-10       6.598433360455e-14      -1.194133182945e-12       4.695152138947e-16       2.826277714950e-11       2.220509791895e-12      -9.603266119381e-15 
   81       2.418796434085e-10       6.807312288170e-14      -1.263165866140e-12       4.812603690515e-16       2.746972398579e-11       2.168493379607e-12      -1.001268680641e-14 
   82       2.445557145821e-10       7.017719289296e-14      -1.333369756620e-12       4.931506044993e-16       2.670676425918e-11       2.118275277847e-12      -1.040822046402e-14 
   83       2.472595441831e-10       7.229468122080e-14      -1.404695610846e-12       5.051859261590e-16       2.597115105206e-11       2.069576757060e-12      -1.074414306279e-14 
   84       2.499905633681e-10       7.442369275558e-14      -1.477094127790e-12       5.173663476476e-16       2.526020500122e-11       2.022139219186e-12      -1.098062744675e-14 
   85       2.527493763857e-10       7.656243744149e-14      -1.550522681478e-12       5.296919118476e-16       2.457354433522e-11       1.975950795137e-12      -1.111611325958e-14 
   86       2.555367374724e-10       7.870911389342e-14      -1.624939700297e-12       5.421626730000e-16       2.391118220283e-11       1.931054060114e-12      -1.116009663136e-14 
   87       2.583531789375e-10       8.086186785431e-14      -1.700302684310e-12       5.547786904234e-16       2.327284107566e-11       1.887477108849e-12      -1.112346612171e-14 
   88       2.611989995710e-10       8.301879206426e-14      -1.776568235592e-12       5.675400286658e-16       2.265794059842e-11       1.845232890001e-12      -1.101854759145e-14 
   89       2.640742530531e-10       8.517792612956e-14      -1.853692088569e-12       5.804467576560e-16       2.206558543927e-11       1.804318540557e-12      -1.085914907436e-14 
   90       2.669787363625e-10       8.733725639186e-14      -1.931629140358e-12       5.934989528554e-16       2.149455314014e-11       1.764714720222e-12      -1.066060564882e-14 
   91       2.699119781849e-10       8.949471579719e-14      -2.010333481103e-12       6.066966954098e-16       2.094328196701e-11       1.726384945824e-12      -1.043982430955e-14 
   92       2.728732273223e-10       9.164818376507e-14      -2.089758424316e-12       6.200400723007e-16       2.040985876026e-11       1.689274925707e-12      -1.021532883930e-14 
   93       2.758617424827e-10       9.379554454629e-14      -2.169854452095e-12       6.335292869438e-16       1.989248225577e-11       1.653328721714e-12      -1.000359932840e-14 
   94       2.788777366857e-10       9.593487262054e-14      -2.250562631381e-12       6.471650096824e-16       1.939095914913e-11       1.618541461394e-12      -9.807363510214e-15 
   95       2.819215541257e-10       9.806427507028e-14      -2.331820258992e-12       6.609480805336e-16       1.890541162302e-11       1.584913359972e-12      -9.625619211033e-15 
   96       2.849933740912e-10       1.001818362395e-13      -2.413562860206e-12       6.748794050845e-16       1.843581637745e-11       1.552433170370e-12      -9.457176884301e-15 
   97       2.880932035113e-10       1.022856184058e-13      -2.495724190479e-12       6.889599561596e-16       1.798199900678e-11       1.521077748589e-12      -9.300653619549e-15 
   98       2.912208695005e-10       1.043736624521e-13      -2.578236237159e-12       7.031907754886e-16       1.754362837672e-11       1.490811619103e-12      -9.154467151334e-15 
   99       2.943760119053e-10       1.064439885389e-13      -2.661029221202e-12       7.175729753743e-16       1.712021100140e-11       1.461586540239e-12      -9.016829868175e-15 
  100       2.975580758493e-10       1.084945967758e-13      -2.744031598892e-12       7.321077403599e-16       1.671108542035e-11       1.433341069568e-12      -8.885742821494e-15 
  101       3.007663042792e-10       1.105234678939e-13      -2.827170063555e-12       7.467963288974e-16       1.631541657557e-11       1.406000129292e-12      -8.758989734549e-15 
  102       3.039997305105e-10       1.125285639177e-13      -2.910369547274e-12       7.616400750149e-16       1.593219018849e-11       1.379474571628e-12      -8.634131011377e-15 
  103       3.072571707728e-10       1.145078288366e-13      -2.993553222611e-12       7.766403899843e-16       1.556020713705e-11       1.353660744196e-12      -8.508497745728e-15 
  104       3.105374958975e-10       1.164592248920e-13      -3.076644892085e-12       7.917986358067e-16       1.519836067461e-11       1.328463896324e-12      -8.379807800884e-15 
  105       3.138405042308e-10       1.183808455721e-13      -3.159576520555e-12       8.071157226118e-16       1.484652284677e-11       1.303872935012e-12      -8.248121734451e-15 
  106       3.171661532903e-10       1.202708192046e-13      -3.242281728292e-12       8.225924597289e-16       1.450476789114e-11       1.279895004175e-12      -8.114141151449e-15 
  107       3.205142868197e-10       1.221272757559e-13      -3.324693521689e-12       8.382296792691e-16       1.417309760377e-11       1.256532374962e-12      -7.978611062322e-15 
